id,solar_irradiation
87744,0.0
87745,0.0
87746,0.0
87747,0.0
87748,0.0
87749,0.0
87750,0.0
87751,2.3582
87752,12.9141
87753,25.2323
87754,38.6862
87755,52.694
87756,66.8219
87757,81.3604
87758,96.2164
87759,110.3955
87760,123.5174
87761,136.3068
87762,148.6887
87763,160.1403
87764,170.5119
87765,180.1666
87766,189.0488
87767,196.6007
87768,202.7289
87769,207.8906
87770,212.0588
87771,214.8583
87772,216.2628
87773,216.616
87774,215.9186
87775,213.7942
87776,210.2661
87777,205.7437
87778,200.256
87779,193.255
87780,184.8356
87781,175.6528
87782,165.7665
87783,154.3955
87784,141.7586
87785,128.8361
87786,115.7177
87787,101.2243
87788,85.8518
87789,71.1185
87790,57.1387
87791,43.0287
87792,29.5647
87793,18.0766
87794,8.6666
87795,1.5498
87796,0.0
87797,0.0
87798,0.0
87799,0.0
87800,0.0
87801,0.0
87802,0.0
87803,0.0
87804,0.0
87805,0.0
87806,0.0
87807,0.0
87808,0.0
87809,0.0
87810,0.0
87811,0.0
87812,0.0
87813,0.0
87814,0.0
87815,0.0
87816,0.0
87817,0.0
87818,0.0
87819,0.0
87820,0.0
87821,0.0
87822,0.0
87823,0.0
87824,0.0
87825,0.0
87826,0.0
87827,0.0
87828,0.0
87829,0.0
87830,0.0
87831,0.0
87832,0.0
87833,0.0
87834,0.0
87835,0.0
87836,0.0
87837,0.0
87838,0.0
87839,0.0
87840,0.0
87841,0.0
87842,0.0
87843,0.0
87844,0.0
87845,0.0
87846,0.0
87847,2.133
87848,12.898
87849,25.0498
87850,37.69
87851,50.7886
87852,64.2983
87853,78.1079
87854,92.1326
87855,105.6514
87856,118.3745
87857,130.7918
87858,142.8303
87859,154.0467
87860,164.3055
87861,173.8954
87862,182.7593
87863,190.1749
87864,196.0321
87865,200.9482
87866,204.8986
87867,207.2843
87868,208.0753
87869,207.8486
87870,206.6136
87871,204.0343
87872,200.1411
87873,195.3185
87874,189.6025
87875,182.4363
87876,173.9216
87877,164.7349
87878,154.9415
87879,143.652
87880,131.1081
87881,118.4163
87882,105.6718
87883,91.7413
87884,77.1067
87885,63.2419
87886,50.2617
87887,37.6921
87888,26.0195
87889,16.0548
87890,7.887
87891,1.609
87892,0.0
87893,0.0
87894,0.0
87895,0.0
87896,0.0
87897,0.0
87898,0.0
87899,0.0
87900,0.0
87901,0.0
87902,0.0
87903,0.0
87904,0.0
87905,0.0
87906,0.0
87907,0.0
87908,0.0
87909,0.0
87910,0.0
87911,0.0
87912,0.0
87913,0.0
87914,0.0
87915,0.0
87916,0.0
87917,0.0
87918,0.0
87919,0.0
87920,0.0
87921,0.0
87922,0.0
87923,0.0
87924,0.0
87925,0.0
87926,0.0
87927,0.0
87928,0.0
87929,0.0
87930,0.0
87931,0.0
87932,0.0
87933,0.0
87934,0.0
87935,0.0
87936,0.0
87937,0.0
87938,0.0
87939,0.0
87940,0.0
87941,0.0
87942,0.0
87943,2.0361
87944,12.321
87945,24.2791
87946,37.0961
87947,50.5092
87948,64.3051
87949,78.5375
87950,93.1147
87951,107.0049
87952,119.8147
87953,132.3036
87954,144.3989
87955,155.5795
87956,165.6972
87957,175.1164
87958,183.7836
87959,191.3215
87960,197.6534
87961,203.0598
87962,207.5096
87963,210.4948
87964,211.981
87965,212.4384
87966,211.8664
87967,209.9162
87968,206.6085
87969,202.3219
87970,197.0836
87971,190.4847
87972,182.6034
87973,173.9427
87974,164.5565
87975,153.8095
87976,141.8856
87977,129.5952
87978,117.0189
87979,103.158
87980,88.4357
87981,74.1496
87982,60.4035
87983,45.9581
87984,31.8025
87985,19.6903
87986,9.7288
87987,2.0156
87988,0.0
87989,0.0
87990,0.0
87991,0.0
87992,0.0
87993,0.0
87994,0.0
87995,0.0
87996,0.0
87997,0.0
87998,0.0
87999,0.0
88000,0.0
88001,0.0
88002,0.0
88003,0.0
88004,0.0
88005,0.0
88006,0.0
88007,0.0
88008,0.0
88009,0.0
88010,0.0
88011,0.0
88012,0.0
88013,0.0
88014,0.0
88015,0.0
88016,0.0
88017,0.0
88018,0.0
88019,0.0
88020,0.0
88021,0.0
88022,0.0
88023,0.0
88024,0.0
88025,0.0
88026,0.0
88027,0.0
88028,0.0
88029,0.0
88030,0.0
88031,0.0
88032,0.0
88033,0.0
88034,0.0
88035,0.0
88036,0.0
88037,0.0
88038,0.0
88039,2.1611
88040,12.7946
88041,25.0757
88042,38.1993
88043,51.8513
88044,65.7832
88045,80.0888
88046,94.6779
88047,108.6028
88048,121.4986
88049,134.0526
88050,146.1928
88051,157.3103
88052,167.2426
88053,176.4409
88054,184.8555
88055,192.1042
88056,198.1141
88057,203.1792
88058,207.2735
88059,209.9988
88060,211.3285
88061,211.6314
88062,210.9095
88063,208.8094
88064,205.3545
88065,200.932
88066,195.5712
88067,188.695
88068,180.4002
88069,171.3722
88070,161.6711
88071,150.8044
88072,138.9368
88073,126.7358
88074,114.2827
88075,100.5545
88076,85.9825
88077,71.893
88078,58.3906
88079,44.2617
88080,30.4764
88081,18.7554
88082,9.2046
88083,1.9228
88084,0.0
88085,0.0
88086,0.0
88087,0.0
88088,0.0
88089,0.0
88090,0.0
88091,0.0
88092,0.0
88093,0.0
88094,0.0
88095,0.0
88096,0.0
88097,0.0
88098,0.0
88099,0.0
88100,0.0
88101,0.0
88102,0.0
88103,0.0
88104,0.0
88105,0.0
88106,0.0
88107,0.0
88108,0.0
88109,0.0
88110,0.0
88111,0.0
88112,0.0
88113,0.0
88114,0.0
88115,0.0
88116,0.0
88117,0.0
88118,0.0
88119,0.0
88120,0.0
88121,0.0
88122,0.0
88123,0.0
88124,0.0
88125,0.0
88126,0.0
88127,0.0
88128,0.0
88129,0.0
88130,0.0
88131,0.0
88132,0.0
88133,0.0
88134,0.0
88135,1.7227
88136,11.6023
88137,23.1069
88138,35.2279
88139,47.946
88140,61.2209
88141,74.9306
88142,88.9864
88143,102.518
88144,115.1825
88145,127.5965
88146,139.6848
88147,150.8357
88148,160.8815
88149,170.2682
88150,178.9408
88151,186.7868
88152,193.7512
88153,199.8474
88154,205.034
88155,208.4359
88156,209.9989
88157,210.5439
88158,210.0702
88159,208.159
88160,204.8323
88161,200.5392
88162,195.3081
88163,188.6537
88164,180.6622
88165,171.9191
88166,162.4811
88167,151.6989
88168,139.7605
88169,127.4962
88170,114.9889
88171,101.166
88172,86.4723
88173,72.2907
88174,58.728
88175,44.5422
88176,30.709
88177,18.9829
88178,9.4716
88179,2.2194
88180,0.0
88181,0.0
88182,0.0
88183,0.0
88184,0.0
88185,0.0
88186,0.0
88187,0.0
88188,0.0
88189,0.0
88190,0.0
88191,0.0
88192,0.0
88193,0.0
88194,0.0
88195,0.0
88196,0.0
88197,0.0
88198,0.0
88199,0.0
88200,0.0
88201,0.0
88202,0.0
88203,0.0
88204,0.0
88205,0.0
88206,0.0
88207,0.0
88208,0.0
88209,0.0
88210,0.0
88211,0.0
88212,0.0
88213,0.0
88214,0.0
88215,0.0
88216,0.0
88217,0.0
88218,0.0
88219,0.0
88220,0.0
88221,0.0
88222,0.0
88223,0.0
88224,0.0
88225,0.0
88226,0.0
88227,0.0
88228,0.0
88229,0.0
88230,0.0
88231,1.8565
88232,12.1816
88233,24.129
88234,36.694
88235,49.8088
88236,63.3982
88237,77.3757
88238,91.6528
88239,105.338
88240,118.0829
88241,130.5254
88242,142.5924
88243,153.6555
88244,163.5471
88245,172.7348
88246,181.168
88247,187.9795
88248,193.052
88249,197.1597
88250,200.2898
88251,202.5565
88252,203.9586
88253,204.3715
88254,203.796
88255,201.7912
88256,198.3815
88257,194.0419
88258,188.8022
88259,182.2793
88260,174.5509
88261,166.0977
88262,156.9747
88263,146.3972
88264,134.5752
88265,122.4813
88266,110.1999
88267,96.653
88268,82.2875
88269,68.4939
88270,55.379
88271,41.8291
88272,28.7324
88273,17.6815
88274,8.7793
88275,2.0771
88276,0.0
88277,0.0
88278,0.0
88279,0.0
88280,0.0
88281,0.0
88282,0.0
88283,0.0
88284,0.0
88285,0.0
88286,0.0
88287,0.0
88288,0.0
88289,0.0
88290,0.0
88291,0.0
88292,0.0
88293,0.0
88294,0.0
88295,0.0
88296,0.0
88297,0.0
88298,0.0
88299,0.0
88300,0.0
88301,0.0
88302,0.0
88303,0.0
88304,0.0
88305,0.0
88306,0.0
88307,0.0
88308,0.0
88309,0.0
88310,0.0
88311,0.0
88312,0.0
88313,0.0
88314,0.0
88315,0.0
88316,0.0
88317,0.0
88318,0.0
88319,0.0
88320,0.0
88321,0.0
88322,0.0
88323,0.0
88324,0.0
88325,0.0
88326,0.0
88327,1.532
88328,11.4847
88329,23.0035
88330,34.8091
88331,47.1756
88332,60.2756
88333,73.7739
88334,87.5849
88335,100.9054
88336,113.4144
88337,125.6723
88338,137.6055
88339,148.5889
88340,158.4532
88341,167.6602
88342,176.1568
88343,183.7367
88344,190.3385
88345,196.0731
88346,200.9043
88347,204.0907
88348,205.5856
88349,206.0842
88350,205.5868
88351,203.6545
88352,200.3108
88353,196.0272
88354,190.8335
88355,183.9719
88356,175.555
88357,166.4582
88358,156.7464
88359,145.8992
88360,134.0889
88361,122.02
88362,109.7779
88363,96.2379
88364,81.8585
88365,68.0826
88366,55.0188
88367,41.52
88368,28.4836
88369,17.5408
88370,8.7959
88371,2.3017
88372,0.0
88373,0.0
88374,0.0
88375,0.0
88376,0.0
88377,0.0
88378,0.0
88379,0.0
88380,0.0
88381,0.0
88382,0.0
88383,0.0
88384,0.0
88385,0.0
88386,0.0
88387,0.0
88388,0.0
88389,0.0
88390,0.0
88391,0.0
88392,0.0
88393,0.0
88394,0.0
88395,0.0
88396,0.0
88397,0.0
88398,0.0
88399,0.0
88400,0.0
88401,0.0
88402,0.0
88403,0.0
88404,0.0
88405,0.0
88406,0.0
88407,0.0
88408,0.0
88409,0.0
88410,0.0
88411,0.0
88412,0.0
88413,0.0
88414,0.0
88415,0.0
88416,0.0
88417,0.0
88418,0.0
88419,0.0
88420,0.0
88421,0.0
88422,0.0
88423,1.5079
88424,11.0423
88425,22.1577
88426,33.6965
88427,45.9001
88428,58.9157
88429,72.429
88430,86.3508
88431,99.7766
88432,112.3502
88433,124.7158
88434,136.797
88435,147.9123
88436,157.8798
88437,167.2092
88438,175.8456
88439,182.7318
88440,187.7283
88441,191.7878
88442,194.8976
88443,197.2084
88444,198.7198
88445,199.2697
88446,198.8576
88447,196.9814
88448,193.6652
88449,189.4436
88450,184.3461
88451,178.3034
88452,171.362
88453,163.6703
88454,155.2742
88455,144.9639
88456,133.0129
88457,120.8359
88458,108.5205
88459,94.9384
88460,80.5511
88461,66.8105
88462,53.8264
88463,40.5181
88464,27.7398
88465,17.0418
88466,8.5267
88467,2.2566
88468,0.0001
88469,0.0
88470,0.0
88471,0.0
88472,0.0
88473,0.0
88474,0.0
88475,0.0
88476,0.0
88477,0.0
88478,0.0
88479,0.0
88480,0.0
88481,0.0
88482,0.0
88483,0.0
88484,0.0
88485,0.0
88486,0.0
88487,0.0
88488,0.0
88489,0.0
88490,0.0
88491,0.0
88492,0.0
88493,0.0
88494,0.0
88495,0.0
88496,0.0
88497,0.0
88498,0.0
88499,0.0
88500,0.0
88501,0.0
88502,0.0
88503,0.0
88504,0.0
88505,0.0
88506,0.0
88507,0.0
88508,0.0
88509,0.0
88510,0.0
88511,0.0
88512,0.0
88513,0.0
88514,0.0
88515,0.0
88516,0.0
88517,0.0
88518,0.0
88519,1.2833
88520,10.8021
88521,21.8197
88522,32.833
88523,44.4777
88524,57.1931
88525,70.3797
88526,83.9514
88527,97.1017
88528,109.5057
88529,121.7236
88530,133.6792
88531,144.6777
88532,154.534
88533,163.7708
88534,172.3335
88535,180.2309
88536,187.4189
88537,193.7899
88538,199.2984
88539,202.8006
88540,204.2289
88541,204.6674
88542,204.1179
88543,202.122
88544,198.7046
88545,194.3603
88546,189.1207
88547,181.9146
88548,172.885
88549,163.2411
88550,153.0578
88551,142.0331
88552,130.31
88553,118.3751
88554,106.3152
88555,93.015
88556,78.9267
88557,65.4839
88558,52.7952
88559,39.8056
88560,27.337
88561,16.9004
88562,8.5966
88563,2.4918
88564,0.011
88565,0.0
88566,0.0
88567,0.0
88568,0.0
88569,0.0
88570,0.0
88571,0.0
88572,0.0
88573,0.0
88574,0.0
88575,0.0
88576,0.0
88577,0.0
88578,0.0
88579,0.0
88580,0.0
88581,0.0
88582,0.0
88583,0.0
88584,0.0
88585,0.0
88586,0.0
88587,0.0
88588,0.0
88589,0.0
88590,0.0
88591,0.0
88592,0.0
88593,0.0
88594,0.0
88595,0.0
88596,0.0
88597,0.0
88598,0.0
88599,0.0
88600,0.0
88601,0.0
88602,0.0
88603,0.0
88604,0.0
88605,0.0
88606,0.0
88607,0.0
88608,0.0
88609,0.0
88610,0.0
88611,0.0
88612,0.0
88613,0.0
88614,0.0
88615,1.4719
88616,11.9035
88617,23.8416
88618,35.7231
88619,48.134
88620,61.4764
88621,75.1854
88622,89.1758
88623,102.6584
88624,115.3161
88625,127.6976
88626,139.7298
88627,150.7835
88628,160.689
88629,169.9139
88630,178.4068
88631,185.414
88632,190.826
88633,195.302
88634,198.8246
88635,201.3295
88636,202.8063
88637,203.3018
88638,202.817
88639,200.8933
88640,197.5547
88641,193.294
88642,188.1416
88643,181.3938
88644,173.1578
88645,164.2528
88646,154.7427
88647,144.064
88648,132.3939
88649,120.4808
88650,108.4099
88651,95.0331
88652,80.8102
88653,67.2084
88654,54.3364
88655,41.0399
88656,28.2018
88657,17.4549
88658,8.9029
88659,2.6142
88660,0.0148
88661,0.0
88662,0.0
88663,0.0
88664,0.0
88665,0.0
88666,0.0
88667,0.0
88668,0.0
88669,0.0
88670,0.0
88671,0.0
88672,0.0
88673,0.0
88674,0.0
88675,0.0
88676,0.0
88677,0.0
88678,0.0
88679,0.0
88680,0.0
88681,0.0
88682,0.0
88683,0.0
88684,0.0
88685,0.0
88686,0.0
88687,0.0
88688,0.0
88689,0.0
88690,0.0
88691,0.0
88692,0.0
88693,0.0
88694,0.0
88695,0.0
88696,0.0
88697,0.0
88698,0.0
88699,0.0
88700,0.0
88701,0.0
88702,0.0
88703,0.0
88704,0.0
88705,0.0
88706,0.0
88707,0.0
88708,0.0
88709,0.0
88710,0.0
88711,1.4756
88712,11.5486
88713,23.1112
88714,34.7443
88715,47.0115
88716,60.2953
88717,74.044
88718,88.1687
88719,101.8005
88720,114.5937
88721,127.1607
88722,139.4251
88723,150.6492
88724,160.6407
88725,169.9637
88726,178.5653
88727,185.5287
88728,190.7282
88729,194.9819
88730,198.2754
88731,200.4985
88732,201.6428
88733,201.8082
88734,201.0005
88735,198.7853
88736,195.1906
88737,190.6935
88738,185.3282
88739,177.9902
88740,168.8283
88741,159.0918
88742,148.8587
88743,137.8632
88744,126.245
88745,114.4561
88746,102.5844
88747,89.4774
88748,75.5981
88749,62.4222
88750,50.0587
88751,37.6038
88752,25.7804
88753,15.9109
88754,8.0915
88755,2.3979
88756,0.017
88757,0.0
88758,0.0
88759,0.0
88760,0.0
88761,0.0
88762,0.0
88763,0.0
88764,0.0
88765,0.0
88766,0.0
88767,0.0
88768,0.0
88769,0.0
88770,0.0
88771,0.0
88772,0.0
88773,0.0
88774,0.0
88775,0.0
88776,0.0
88777,0.0
88778,0.0
88779,0.0
88780,0.0
88781,0.0
88782,0.0
88783,0.0
88784,0.0
88785,0.0
88786,0.0
88787,0.0
88788,0.0
88789,0.0
88790,0.0
88791,0.0
88792,0.0
88793,0.0
88794,0.0
88795,0.0
88796,0.0
88797,0.0
88798,0.0
88799,0.0
88800,0.0
88801,0.0
88802,0.0
88803,0.0
88804,0.0
88805,0.0
88806,0.0
88807,1.1621
88808,10.61
88809,21.5618
88810,32.3245
88811,43.7587
88812,56.4724
88813,69.7011
88814,83.3575
88815,96.6491
88816,109.2531
88817,121.7124
88818,133.9479
88819,145.1755
88820,155.1909
88821,164.5952
88822,173.3321
88823,180.7326
88824,186.6892
88825,191.7653
88826,195.9345
88827,198.8341
88828,200.4358
88829,201.0706
88830,200.7377
88831,198.947
88832,195.7215
88833,191.5831
88834,186.5616
88835,179.7272
88836,171.2061
88837,162.054
88838,152.34
88839,141.6627
88840,130.1753
88841,118.4601
88842,106.6016
88843,93.4715
88844,79.5181
88845,66.1833
88846,53.5744
88847,40.5553
88848,27.9789
88849,17.4478
88850,9.0641
88851,2.901
88852,0.0545
88853,0.0
88854,0.0
88855,0.0
88856,0.0
88857,0.0
88858,0.0
88859,0.0
88860,0.0
88861,0.0
88862,0.0
88863,0.0
88864,0.0
88865,0.0
88866,0.0
88867,0.0
88868,0.0
88869,0.0
88870,0.0
88871,0.0
88872,0.0
88873,0.0
88874,0.0
88875,0.0
88876,0.0
88877,0.0
88878,0.0
88879,0.0
88880,0.0
88881,0.0
88882,0.0
88883,0.0
88884,0.0
88885,0.0
88886,0.0
88887,0.0
88888,0.0
88889,0.0
88890,0.0
88891,0.0
88892,0.0
88893,0.0
88894,0.0
88895,0.0
88896,0.0
88897,0.0
88898,0.0
88899,0.0
88900,0.0
88901,0.0
88902,0.0
88903,1.3731
88904,11.8697
88905,23.7341
88906,35.1821
88907,47.1374
88908,60.2533
88909,73.7209
88910,87.4572
88911,100.7201
88912,113.2083
88913,125.4312
88914,137.3171
88915,148.2844
88916,158.1721
88917,167.4029
88918,175.9249
88919,183.0991
88920,188.8253
88921,193.6455
88922,197.5377
88923,200.2726
88924,201.8303
88925,202.4146
88926,202.0255
88927,200.1506
88928,196.8143
88929,192.5635
88930,187.4293
88931,180.5848
88932,172.1482
88933,163.0694
88934,153.4161
88935,142.7368
88936,131.1916
88937,119.4146
88938,107.4907
88939,94.2764
88940,80.2242
88941,66.7935
88942,54.0924
88943,40.9436
88944,28.2239
88945,17.5867
88946,9.1354
88947,2.9524
88948,0.0627
88949,0.0
88950,0.0
88951,0.0
88952,0.0
88953,0.0
88954,0.0
88955,0.0
88956,0.0
88957,0.0
88958,0.0
88959,0.0
88960,0.0
88961,0.0
88962,0.0
88963,0.0
88964,0.0
88965,0.0
88966,0.0
88967,0.0
88968,0.0
88969,0.0
88970,0.0
88971,0.0
88972,0.0
88973,0.0
88974,0.0
88975,0.0
88976,0.0
88977,0.0
88978,0.0
88979,0.0
88980,0.0
88981,0.0
88982,0.0
88983,0.0
88984,0.0
88985,0.0
88986,0.0
88987,0.0
88988,0.0
88989,0.0
88990,0.0
88991,0.0
88992,0.0
88993,0.0
88994,0.0
88995,0.0
88996,0.0
88997,0.0
88998,0.0
88999,1.4355
89000,11.9592
89001,23.9568
89002,35.7615
89003,48.1378
89004,61.619
89005,75.5071
89006,89.7149
89007,103.4127
89008,116.2675
89009,128.8607
89010,141.1175
89011,152.354
89012,162.3887
89013,171.7382
89014,180.3508
89015,187.7087
89016,193.7232
89017,198.8176
89018,202.9667
89019,205.7867
89020,207.2505
89021,207.7141
89022,207.1795
89023,205.2075
89024,201.8225
89025,197.4999
89026,192.2711
89027,185.4534
89028,177.152
89029,168.1657
89030,158.5589
89031,147.6577
89032,135.6575
89033,123.4268
89034,111.0544
89035,97.336
89036,82.7465
89037,68.8205
89038,55.6706
89039,42.0952
89040,28.9899
89041,18.0461
89042,9.3704
89043,3.0575
89044,0.073
89045,0.0
89046,0.0
89047,0.0
89048,0.0
89049,0.0
89050,0.0
89051,0.0
89052,0.0
89053,0.0
89054,0.0
89055,0.0
89056,0.0
89057,0.0
89058,0.0
89059,0.0
89060,0.0
89061,0.0
89062,0.0
89063,0.0
89064,0.0
89065,0.0
89066,0.0
89067,0.0
89068,0.0
89069,0.0
89070,0.0
89071,0.0
89072,0.0
89073,0.0
89074,0.0
89075,0.0
89076,0.0
89077,0.0
89078,0.0
89079,0.0
89080,0.0
89081,0.0
89082,0.0
89083,0.0
89084,0.0
89085,0.0
89086,0.0
89087,0.0
89088,0.0
89089,0.0
89090,0.0
89091,0.0
89092,0.0
89093,0.0
89094,0.0
89095,1.2864
89096,12.4492
89097,25.092
89098,36.9776
89099,49.2972
89100,62.9094
89101,76.8102
89102,90.9166
89103,104.5566
89104,117.4512
89105,130.0469
89106,142.2713
89107,153.522
89108,163.6334
89109,173.0479
89110,181.7144
89111,189.1231
89112,195.1861
89113,200.3196
89114,204.4991
89115,207.3884
89116,208.962
89117,209.5284
89118,209.0888
89119,207.2069
89120,203.9056
89121,199.6561
89122,194.4892
89123,187.7235
89124,179.4628
89125,170.5027
89126,160.9071
89127,150.0196
89128,138.0309
89129,125.7895
89130,113.3835
89131,99.5964
89132,84.9016
89133,70.8454
89134,57.5405
89135,43.658
89136,30.1563
89137,18.8793
89138,9.9375
89139,3.44
89140,0.1392
89141,0.0
89142,0.0
89143,0.0
89144,0.0
89145,0.0
89146,0.0
89147,0.0
89148,0.0
89149,0.0
89150,0.0
89151,0.0
89152,0.0
89153,0.0
89154,0.0
89155,0.0
89156,0.0
89157,0.0
89158,0.0
89159,0.0
89160,0.0
89161,0.0
89162,0.0
89163,0.0
89164,0.0
89165,0.0
89166,0.0
89167,0.0
89168,0.0
89169,0.0
89170,0.0
89171,0.0
89172,0.0
89173,0.0
89174,0.0
89175,0.0
89176,0.0
89177,0.0
89178,0.0
89179,0.0
89180,0.0
89181,0.0
89182,0.0
89183,0.0
89184,0.0
89185,0.0
89186,0.0
89187,0.0
89188,0.0
89189,0.0
89190,0.0
89191,1.4069
89192,12.8971
89193,25.7783
89194,37.8937
89195,50.4186
89196,64.1965
89197,78.2333
89198,92.4463
89199,106.1521
89200,119.0687
89201,131.655
89202,143.84
89203,155.0288
89204,165.059
89205,174.3698
89206,182.9118
89207,190.2917
89208,196.4343
89209,201.6453
89210,205.8994
89211,208.7719
89212,210.2343
89213,210.6827
89214,210.1204
89215,208.1025
89216,204.6544
89217,200.259
89218,194.9492
89219,188.0871
89220,179.7743
89221,170.7647
89222,161.123
89223,150.1827
89224,138.1368
89225,125.8456
89226,113.398
89227,99.5859
89228,84.8802
89229,70.8188
89230,57.5149
89231,43.689
89232,30.2674
89233,19.0316
89234,10.0911
89235,3.5412
89236,0.1556
89237,0.0
89238,0.0
89239,0.0
89240,0.0
89241,0.0
89242,0.0
89243,0.0
89244,0.0
89245,0.0
89246,0.0
89247,0.0
89248,0.0
89249,0.0
89250,0.0
89251,0.0
89252,0.0
89253,0.0
89254,0.0
89255,0.0
89256,0.0
89257,0.0
89258,0.0
89259,0.0
89260,0.0
89261,0.0
89262,0.0
89263,0.0
89264,0.0
89265,0.0
89266,0.0
89267,0.0
89268,0.0
89269,0.0
89270,0.0
89271,0.0
89272,0.0
89273,0.0
89274,0.0
89275,0.0
89276,0.0
89277,0.0
89278,0.0
89279,0.0
89280,0.0
89281,0.0
89282,0.0
89283,0.0
89284,0.0
89285,0.0
89286,0.0
89287,1.2943
89288,11.312
89289,22.5599
89290,33.2914
89291,44.6442
89292,57.4296
89293,70.6803
89294,84.3111
89295,97.5809
89296,110.1854
89297,122.6255
89298,134.8237
89299,146.0203
89300,156.0163
89301,165.3928
89302,174.0949
89303,181.6395
89304,187.9372
89305,193.3688
89306,197.9036
89307,200.9634
89308,202.5095
89309,203.082
89310,202.6818
89311,200.8561
89312,197.6276
89313,193.4831
89314,188.4528
89315,182.2113
89316,174.8285
89317,166.7235
89318,157.9494
89319,147.458
89320,135.4946
89321,123.31
89322,110.9935
89323,97.3634
89324,82.8821
89325,69.0575
89326,56.0018
89327,42.4675
89328,29.357
89329,18.4095
89330,9.7324
89331,3.4378
89332,0.1636
89333,0.0
89334,0.0
89335,0.0
89336,0.0
89337,0.0
89338,0.0
89339,0.0
89340,0.0
89341,0.0
89342,0.0
89343,0.0
89344,0.0
89345,0.0
89346,0.0
89347,0.0
89348,0.0
89349,0.0
89350,0.0
89351,0.0
89352,0.0
89353,0.0
89354,0.0
89355,0.0
89356,0.0
89357,0.0
89358,0.0
89359,0.0
89360,0.0
89361,0.0
89362,0.0
89363,0.0
89364,0.0
89365,0.0
89366,0.0
89367,0.0
89368,0.0
89369,0.0
89370,0.0
89371,0.0
89372,0.0
89373,0.0
89374,0.0
89375,0.0
89376,0.0
89377,0.0
89378,0.0
89379,0.0
89380,0.0
89381,0.0
89382,0.0
89383,1.3657
89384,13.8436
89385,27.6234
89386,39.9691
89387,52.603
89388,66.7846
89389,81.1226
89390,95.5364
89391,109.4617
89392,122.6566
89393,135.4773
